Time (h),Temperature (degC)
0,7.999996056943332
1,8.009027984183898
2,8.020794303551178
3,8.034157396439085
4,8.049340015716982
5,8.066067212396852
6,8.082794409076628
7,8.099521605756461
8,8.118065915796624
9,8.136666144771942
10,8.15526637374711
11,8.173866602722377
12,8.192466831697711
13,8.211067060673
14,8.22966728964822
15,8.249285419310066
16,8.269113950394743
17,8.288942481479669
18,8.30877101256434
19,8.328599543649036
20,8.34842807473383
21,8.368256605818658
22,8.388085136903333
23,8.407913667988055
24,8.427742199072782
25,8.447570730157594
26,8.467399261242239
27,8.48722779232703
28,8.507056323411927
29,8.526450343146658
30,8.54548281214906
31,8.564515281151545
32,8.583547750153958
33,8.60258021915646
34,8.621612688158855
35,8.640645157161375
36,8.659677626163743
37,8.678710095166348
38,8.697742564168923
39,8.716775033171187
40,8.735807502173635
41,8.754839971176185
42,8.773872440178717
43,8.792678510606104
44,8.810849973185034
45,8.829021435763726
46,8.847192898342893
47,8.865364360921722
48,8.88353582350077
49,8.901707286079663
50,8.919878748658585
51,8.938050211237623
52,8.956221673816612
53,8.974393136395415
54,8.992564598974338
55,9.010736061553342
56,9.028907524132341
57,9.047078986711282
58,9.065250449290216
59,9.083421911869046
60,9.101593374448074
61,9.119764837027127
62,9.137936299605874
63,9.156107762184975
64,9.174279224763874
65,9.19245068734282
66,9.210622149921685
67,9.228793612500668
68,9.246965075079743
69,9.26513653765849
70,9.283308000237417
71,9.3014794628164
72,9.318873211130509
73,9.335929171249804
74,9.352985131369014
75,9.370041091488174
76,9.38709705160732
77,9.404153011726605
78,9.421208971845797
79,9.438264931965035
80,9.455320892084261
81,9.472376852203553
82,9.489432812322846
83,9.506488772441973
84,9.52354473256121
85,9.540600692680448
86,9.557656652799707
87,9.574712612918855
88,9.59176857303802
89,9.608824533157325
90,9.625880493276412
91,9.642936453395736
92,9.659992413514914
93,9.677048373634232
94,9.694104333753126
95,9.711160293872679
96,9.728216253991892
97,9.74527221411104
98,9.762328174230266
99,9.779384134349359
100,9.796440094468545
101,9.813496054587926
102,9.830552014707045
103,9.84760797482627
104,9.864663934945543
105,9.881719895064926
106,9.898775855184013
107,9.915831815303346
108,9.932887775422351
109,9.949943735541611
110,9.966999695660807
111,9.984055655780011
112,10.001111615899347
113,10.018167576018596
114,10.035223536137755
115,10.052279496257004
116,10.069335456376216
117,10.08639141649526
118,10.103447376614701
119,10.1205033367338
120,10.137559296853096
121,10.154615256972312
122,10.171671217091404
123,10.188727177210644
124,10.205783137329826
125,10.22283909744926
126,10.239895057568335
127,10.256951017687586
128,10.274006977806838
129,10.290169329582216
130,10.305645553459804
131,10.321121777337105
132,10.336598001214824
133,10.352074225092212
134,10.367550448969794
135,10.383026672847294
136,10.398502896724892
137,10.413979120602365
138,10.429455344479821
139,10.444931568357475
140,10.460407792234975
141,10.475884016112678
142,10.491360239989941
143,10.506836463867637
144,10.522312687745115
145,10.537788911622593
146,10.553265135500036
147,10.568741359377588
148,10.584217583255311
149,10.599693807132782
150,10.615170031010276
151,10.630646254887697
152,10.646122478765308
153,10.66159870264284
154,10.677074926520339
155,10.692551150397957
156,10.708027374275426
157,10.72350359815293
158,10.738979822030592
159,10.754456045908032
160,10.769932269785626
161,10.785408493663189
162,10.800884717540578
163,10.816360941418084
164,10.83183716529564
165,10.847313389173106
166,10.86278961305062
167,10.878265836928348
168,10.893742060805687
169,10.909218284683453
170,10.924694508560899
171,10.940170732438329
172,10.955646956315809
173,10.971123180193443
174,10.986599404070995
175,11.002075627948392
176,11.017551851826074
177,11.033028075703534
178,11.048504299581097
179,11.063980523458683
180,11.079456747336176
181,11.09493297121357
182,11.110409195091226
183,11.125885418968652
184,11.141361642846244
185,11.156837866723697
186,11.172314090601114
187,11.18779031447882
188,11.203266538356264
189,11.218742762233747
190,11.234218986111244
191,11.249695209988928
192,11.265171433866337
193,11.28064765774388
194,11.296123881621622
195,11.311600105499041
196,11.327076329376627
197,11.342552553254121
198,11.358028777131624
199,11.373505001009166
200,11.388981224886653
201,11.404457448764228
202,11.41993367264144
203,11.435409896519264
204,11.450886120396735
205,11.466362344274417
206,11.481838568151842
207,11.497314792029462
208,11.512791015906872
209,11.528267239784476
210,11.543743463661839
211,11.559219687539477
212,11.57469591141708
213,11.590172135294441
214,11.605648359171976
215,11.621124583049733
216,11.636600806927245
217,11.652077030804646
218,11.667553254682158
219,11.683029478559858
220,11.698505702437158
221,11.71398192631472
222,11.72945815019247
223,11.744934374069958
224,11.760410597947404
225,11.775886821824779
226,11.7913630457025
227,11.806839269580008
228,11.822315493457644
229,11.83779171733488
230,11.853267941212478
231,11.868744165090053
232,11.884220388967602
233,11.89969661284515
234,11.915172836722638
235,11.930649060600116
236,11.94612528447755
237,11.96160150835534
238,11.977077732232852
239,11.992553956110422
240,12.008030179987722
241,12.023506403865346
242,12.038982627742959
243,12.054193202124276
244,12.068791632325631
245,12.083390062527297
246,12.097988492728938
247,12.112586922930246
248,12.127185353131908
249,12.141783783333247
250,12.156382213534819
251,12.170980643736307
252,12.185579073937765
253,12.200177504139367
254,12.2147759343408
255,12.229374364542275
256,12.24397279474391
257,12.25857122494533
258,12.27316965514672
259,12.28776808534832
260,12.302366515550128
261,12.316964945751401
262,12.331563375953037
263,12.346161806154464
264,12.360760236355848
265,12.375358666557293
266,12.389957096758799
267,12.40455552696035
268,12.419153957161873
269,12.433752387363363
270,12.448350817564975
271,12.462949247766545
272,12.47754767796779
273,12.492146108169589
274,12.506744538371008
275,12.52134296857227
276,12.53594139877411
277,12.550539828975305
278,12.565138259176905
279,12.579736689378548
280,12.59433511957986
281,12.608933549781558
282,12.623531979982916
283,12.638130410184498
284,12.652728840385889
285,12.667327270587583
286,12.681925700789021
287,12.696524130990383
288,12.711122561191944
289,12.725720991393676
290,12.740319421595004
291,12.754917851796495
292,12.769516281998008
293,12.784114712199639
294,12.798713142401137
295,12.813311572602563
296,12.827910002804058
297,12.842508433005564
298,12.857106863206916
299,12.87170529340868
300,12.88630372361014
301,12.900902153811407
302,12.915500584013047
303,12.930099014214477
304,12.944697444416176
305,12.95929587461756
306,12.973894304819089
307,12.988492735020614
308,13.003091165222113
309,13.017689595423553
310,13.03228802562499
311,13.046886455826566
312,13.061484886028225
313,13.076083316229525
314,13.0906817464311
315,13.10528017663282
316,13.119878606834213
317,13.134477037035804
318,13.149075467237147
319,13.163673897438727
320,13.178272327640165
321,13.192870757841716
322,13.207469188043252
323,13.222067618244829
324,13.236666048446448
325,13.251264478647649
326,13.265862908849114
327,13.280461339050733
328,13.29505976925219
329,13.309658199453617
330,13.32425662965533
331,13.338855059857044
332,13.353453490058264
333,13.368051920259802
334,13.382650350461414
335,13.397248780662812
336,13.41184721086421
337,13.426445641065676
338,13.441044071267296
339,13.455642501468896
340,13.470240931670299
341,13.48483936187185
342,13.49943779207337
343,13.514036222274745
344,13.528634652476283
345,13.543233082677766
346,13.557831512879384
347,13.57242994308087
348,13.587028373282354
349,13.601626803483832
350,13.61622523368529
351,13.630823663886899
352,13.645422094088484
353,13.660020524290003
354,13.674618954491269
355,13.689217384692773
356,13.703815814894252
357,13.718349249004772
358,13.731306241024395
359,13.744263233044089
360,13.757220225064
361,13.770177217083798
362,13.783134209103645
363,13.79609120112334
364,13.809048193143063
365,13.822005185162917
366,13.834962177182776
367,13.84791916920267
368,13.860876161222238
369,13.873833153242165
370,13.886790145261967
371,13.899747137281702
372,13.912704129301458
373,13.925661121321333
374,13.938618113341164
375,13.951575105360897
376,13.96453209738098
377,13.97748908940058
378,13.990446081420338
379,14.00340307344009
380,14.016360065460127
381,14.0293170574798
382,14.042274049499602
383,14.055231041519226
384,14.068188033538886
385,14.08114502555909
386,14.09410201757879
387,14.107059009598519
388,14.120016001618312
389,14.132972993638049
390,14.145929985657956
391,14.158886977677776
392,14.17184396969744
393,14.184800961717272
394,14.197757953737156
395,14.210714945757138
396,14.22367193777701
397,14.236628929796565
398,14.249585921816266
399,14.262542913836134
400,14.275499905856108
401,14.288456897875756
402,14.301413889895622
403,14.314370881915277
404,14.327327873935225
405,14.340284865954956
406,14.353241857974675
407,14.3661988499947
408,14.379155842014324
409,14.392112834034071
410,14.405069826053733
411,14.41802681807389
412,14.430983810093661
413,14.443940802113392
414,14.456897794133205
415,14.469854786152922
416,14.482811778172717
417,14.495768770192575
418,14.508725762212276
419,14.521682754232245
420,14.534639746252115
421,14.547596738271784
422,14.56055373029146
423,14.573510722311152
424,14.586467714331162
425,14.599424706351087
426,14.612381698370855
427,14.625338690390372
428,14.638295682410426
429,14.651252674430301
430,14.66420966645008
431,14.677166658469712
432,14.69012365048952
433,14.703080642509496
434,14.71603763452934
435,14.728994626548875
436,14.741951618568754
437,14.754908610588494
438,14.767865602608369
439,14.780822594628123
440,14.793779586647869
441,14.80673657866769
442,14.819693570687484
443,14.832650562707352
444,14.845607554727197
445,14.858564546746846
446,14.871521538766736
447,14.884478530786653
448,14.89743552280632
449,14.910392514826148
450,14.923349506845828
451,14.936306498865576
452,14.949263490885699
453,14.962220482905192
454,14.975177474925177
455,14.988134466945063
456,15.001091458964734
457,15.014048450984594
458,15.027005443004319
459,15.039962435024204
460,15.052919427043884
461,15.065876419063812
462,15.078833411083654
463,15.09179040310321
464,15.104747395123061
465,15.117704387142895
466,15.130661379162609
467,15.143618371182532
468,15.156575363202256
469,15.169532355222254
470,15.182489347241876
471,15.195446339261489
472,15.207135298454933
473,15.218459407800719
474,15.229783517146416
475,15.241107626492296
476,15.252431735838028
477,15.263755845183619
478,15.275079954529751
479,15.28640406387548
480,15.297728173221158
481,15.309052282566727
482,15.320376391912538
483,15.331700501258288
484,15.343024610603978
485,15.354348719949641
486,15.365672829295505
487,15.37699693864134
488,15.388321047987088
489,15.399645157332806
490,15.410969266678636
491,15.4222933760243
492,15.433617485370181
493,15.444941594715887
494,15.456265704061572
495,15.467589813407432
496,15.478913922753136
497,15.49023803209897
498,15.501562141444778
499,15.512886250790602
500,15.524210360136111
501,15.53553446948201
502,15.546858578827816
503,15.558182688173414
504,15.569506797518846
505,15.580830906865213
506,15.592155016210612
507,15.603479125556483
508,15.614803234902176
509,15.626127344248108
510,15.637451453593895
511,15.648775562939544
512,15.660099672285073
513,15.671423781630784
514,15.682747890976632
515,15.694072000322512
516,15.705396109668534
517,15.716720219014068
518,15.728044328360113
519,15.739368437705554
520,15.750692547051264
521,15.762016656397185
522,15.773340765742736
523,15.784664875088406
524,15.795988984434446
525,15.807313093780193
526,15.818637203125855
527,15.82996131247193
528,15.841285421817489
529,15.852609531162953
530,15.863933640508868
531,15.875257749854649
532,15.886581859200419
533,15.8979059685464
534,15.90923007789211
535,15.92055418723773
536,15.931878296583468
537,15.943202405929275
538,15.954526515275058
539,15.965850624620778
540,15.977174733966581
541,15.988498843312035
542,15.999822952658002
543,16.011147062003733
544,16.022471171349554
545,16.03379528069516
546,16.045119390040885
547,16.056443499386667
548,16.067767608732375
549,16.079091718078143
550,16.09041582742406
551,16.101739936769953
552,16.113064046115827
553,16.124388155461208
554,16.13571226480708
555,16.147036374152606
556,16.158360483498544
557,16.169684592844355
558,16.181008702190063
559,16.192332811535977
560,16.203656920881723
561,16.214981030227406
562,16.226305139573004
563,16.237629248918967
564,16.248953358264526
565,16.260277467610376
566,16.271601576956176
567,16.282925686301933
568,16.294249795647715
569,16.30557390499335
570,16.316898014339056
571,16.32822212368491
572,16.339546233030617
573,16.35087034237656
574,16.362194451722203
575,16.373518561067996
576,16.38484267041377
577,16.396166779759515
578,16.407490889105127
579,16.418814998450976
580,16.43013910779676
581,16.44146321714267
582,16.45278732648825
583,16.464111435834248
584,16.475435545179806
585,16.48675965452546
586,16.498083763871158
587,16.509407873217047
588,16.520731982562868
589,16.532056091908675
590,16.54338020125427
591,16.554704310600044
592,16.566028419945866
593,16.57735252929149
594,16.58867663863715
595,16.600000747983106
596,16.611324857328864
597,16.622648966674713
598,16.63397307602044
599,16.645297185366303
600,16.656621294711822
601,16.667945404057694
602,16.67926951340339
603,16.690593622749212
604,16.701917732094792
605,16.71324184144055
606,16.724565950786275
607,16.73589006013219
608,16.747214169477875
609,16.758538278823597
610,16.769862388169425
611,16.78118649751546
612,16.79251060686108
613,16.803834716206676
614,16.81515882555255
615,16.826482934898248
616,16.837807044244055
617,16.849131153590115
618,16.86045526293552
619,16.871779372281356
620,16.88310348162699
621,16.8944275909727
622,16.905751700318717
623,16.91707580966433
624,16.928399919009998
625,16.93972402835572
626,16.951048137701545
627,16.9623722470474
628,16.973696356393045
629,16.98502046573888
630,16.996344575084656
631,17.00766868443029
632,17.018992793775833
633,17.03031690312183
634,17.041641012467547
635,17.05296512181336
636,17.064289231159123
637,17.075613340505083
638,17.086937449850684
639,17.098261559196413
640,17.10958566854225
641,17.12090977788778
642,17.13223388723355
643,17.14355799657944
644,17.154882105925406
645,17.166206215271036
646,17.177530324616637
647,17.18885443396265
648,17.200178543308272
649,17.211502652654016
650,17.222826761999674
651,17.23415087134537
652,17.245474980691267
653,17.256799090037212
654,17.268123199382835
655,17.279447308728432
656,17.290771418074364
657,17.30209552742009
658,17.313419636765513
659,17.32474374611155
660,17.336067855457294
661,17.347391964803077
662,17.358716074148983
663,17.37004018349446
664,17.381364292840136
665,17.392688402185914
666,17.404012511531523
667,17.415336620877586
668,17.426660730223354
669,17.437984839568994
670,17.449308948914886
671,17.460633058260825
672,17.471957167606533
673,17.483281276951942
674,17.494605386297884
675,17.505929495643652
676,17.517253604989264
677,17.52857771433531
678,17.539901823680985
679,17.5512259330265
680,17.5625500423725
681,17.57387415171836
682,17.585198261064047
683,17.59652237040992
684,17.607846479755576
685,17.619170589101394
686,17.630494698447023
687,17.64181880779265
688,17.65314291713864
689,17.664467026484203
690,17.675791135829982
691,17.687115245175818
692,17.698439354521522
693,17.70976346386719
694,17.7210875732131
695,17.73241168255866
696,17.743735791904488
697,17.75505990125027
698,17.76638401059605
699,17.77770811994194
700,17.788567783978415
701,17.798037735850983
702,17.807507687722985
703,17.816977639595184
704,17.826447591467478
705,17.83591754333994
706,17.84538749521216
707,17.8548574470846
708,17.86432739895662
709,17.873797350828998
710,17.883267302701274
711,17.892737254573365
712,17.902207206445993
713,17.911677158317996
714,17.921147110190056
715,17.93061706206235
716,17.94008701393491
717,17.949556965807012
718,17.959026917679434
719,17.968496869551572
720,17.97796682142385
721,17.987436773296146
722,17.996906725168444
723,18.006376677040883
724,18.015846628913003
725,18.025316580785322
726,18.034786532657407
727,18.044256484529956
728,18.053726436402012
729,18.063196388274456
730,18.072666340146334
731,18.08213629201889
732,18.091606243891096
733,18.101076195763444
734,18.110546147635652
735,18.12001609950809
736,18.129486051380226
737,18.138956003252332
738,18.148425955124505
739,18.15789590699721
740,18.16736585886943
741,18.176835810741654
742,18.186305762613827
743,18.195775714486288
744,18.205245666358508
745,18.214715618230667
746,18.224185570102904
747,18.233655521975198
748,18.243125473847464
749,18.252595425719893
750,18.26206537759206
751,18.27153532946432
752,18.281005281336494
753,18.29047523320876
754,18.299945185081015
755,18.30941513695346
756,18.31888508882563
757,18.328355040698067
758,18.337824992570017
759,18.347294944442552
760,18.35676489631475
761,18.366234848186924
762,18.375704800059175
763,18.385174751931423
764,18.394644703803685
765,18.404114655676057
766,18.413584607548376
767,18.423054559420756
768,18.432524511292744
769,18.441994463165138
770,18.45146441503756
771,18.460934366909576
772,18.470404318781917
773,18.47987427065419
774,18.489344222526494
775,18.49881417439882
776,18.508284126270986
777,18.51775407814308
778,18.527224030015415
779,18.5366939818881
780,18.546163933760305
781,18.555633885632396
782,18.565103837504893
783,18.574573789376906
784,18.58404374124914
785,18.593513693121388
786,18.602983644993827
787,18.612453596865944
788,18.621923548738284
789,18.631393500610635
790,18.64086345248277
791,18.650333404355347
792,18.659803356227368
793,18.66927330809986
794,18.67874325997194
795,18.688213211844218
796,18.697683163716345
797,18.707153115588714
798,18.716623067460766
799,18.726093019333174
800,18.735562971205585
801,18.74503292307779
802,18.754502874950404
803,18.763972826822116
804,18.7734427786947
805,18.78291273056677
806,18.792382682439396
807,18.80185263431167
808,18.8113225861835
809,18.820792538055972
810,18.830262489928362
811,18.83973244180035
812,18.849202393672776
813,18.85867234554498
814,18.868142297417517
815,18.877612249289754
816,18.887082201161864
817,18.896552153033998
818,18.90602210490626
819,18.915492056778803
820,18.924962008651153
821,18.934431960523373
822,18.94390191239559
823,18.953371864267794
824,18.962841816140013
825,18.97231176801195
826,18.98178171988466
827,18.991251671756974
828,19.00072162362904
829,19.01019157550129
830,19.019661527373916
831,19.029131479245912
832,19.038601431118508
833,19.048071382990663
834,19.057541334862755
835,19.067011286735017
836,19.07648123860738
837,19.085951190479527
838,19.095421142351796
839,19.10489109422403
840,19.114361046095986
841,19.123830997968565
842,19.133300949840713
843,19.142770901713163
844,19.15224085358548
845,19.1617108054576
846,19.171180757329978
847,19.18065070920216
848,19.1901206610746
849,19.199590612946736
